time,position,velocity,torque
0.000000000000000000e+00,-1.457236591136279458e-03,-1.098901098901450268e-02,-1.318681318681313996e-02
2.000045776367187500e-02,1.020065613793974535e-02,-1.219780219780218999e+00,1.868131868131868600e+00
4.000115394592285156e-02,1.602960250248486318e-02,-4.505494505494525015e-01,1.956043956043956200e+00
6.000137329101562500e-02,2.477302204928832907e-02,3.186813186813211018e-01,1.964835164835164960e+00
8.000159263610839844e-02,3.643091477836435388e-02,6.263736263736277010e-01,1.692307692307693401e+00
1.000020503997802734e-01,5.391775387197128566e-02,6.923076923076934008e-01,1.709890109890110921e+00
1.200022697448730469e-01,7.140459296559242830e-02,1.395604395604394199e+00,1.648351648351649601e+00
1.400024890899658203e-01,9.180590524147191900e-02,1.593406593406591298e+00,1.604395604395605801e+00
1.600027084350585938e-01,1.151216906996239686e-01,1.461538461538459899e+00,1.630769230769232081e+00
1.800029277801513672e-01,1.413519493400485771e-01,1.461538461538459899e+00,1.665934065934067121e+00
2.000031471252441406e-01,1.704966811627315337e-01,1.769230769230766498e+00,1.815384615384616041e+00
2.200033664703369141e-01,2.054703593499596082e-01,2.032967032967036403e+00,2.167032967032966440e+00
2.400035858154296875e-01,2.404440375371876826e-01,1.835164835164832198e+00,2.096703296703296360e+00
2.600038051605224609e-01,2.783321889066883159e-01,1.725274725274722698e+00,2.492307692307690559e+00
2.800040245056152344e-01,3.191348134584615082e-01,2.032967032967036403e+00,2.413186813186811719e+00
3.000042438507080078e-01,3.657663843747656074e-01,1.835164835164832198e+00,2.474725274725273039e+00
3.200044631958007812e-01,4.123979552910697066e-01,2.098901098901102102e+00,2.518681318681320391e+00
3.400049209594726562e-01,4.619439993896321539e-01,2.472527472527474401e+00,2.474725274725273039e+00
3.600051403045654297e-01,5.144045166704813710e-01,2.736263736263737201e+00,2.457142857142855519e+00
3.800053596496582031e-01,5.668650339513305880e-01,2.736263736263737201e+00,2.509890109890111631e+00
4.000055789947509766e-01,6.193255512321655942e-01,3.065934065934065700e+00,2.562637362637364191e+00
4.200057983398437500e-01,6.717860685130148113e-01,3.241758241758240899e+00,2.580219780219781711e+00
4.400060176849365234e-01,7.242465857938498175e-01,2.802197802197802901e+00,2.624175824175825511e+00
4.600062370300292969e-01,7.767071030746990346e-01,2.604395604395605801e+00,2.474725274725273039e+00
4.800064563751220703e-01,8.291676203555340408e-01,2.362637362637364902e+00,2.281318681318680319e+00
5.000066757202148438e-01,8.787136644541106989e-01,2.164835164835167802e+00,2.079120879120878840e+00
5.200068950653076172e-01,9.253452353704147981e-01,2.164835164835167802e+00,1.982417582417582480e+00
5.400071144104003906e-01,9.719768062867188974e-01,1.967032967032963597e+00,1.771428571428572241e+00
5.600073337554931641e-01,1.012779430838477879e+00,1.901098901098897898e+00,1.613186813186814561e+00
5.800075531005859375e-01,1.050667582207978512e+00,1.967032967032963597e+00,1.560439560439562001e+00
6.000077724456787109e-01,1.085641260395206587e+00,1.769230769230766498e+00,1.375824175824174489e+00
6.200079917907714844e-01,1.114785992217903754e+00,1.131868131868131400e+00,1.340659340659339449e+00
6.400082111358642578e-01,1.141016250858314152e+00,1.131868131868131400e+00,1.217582417582416809e+00
6.600084304809570312e-01,1.161417563134207853e+00,8.901098901098905003e-01,1.103296703296702930e+00
6.800086498260498047e-01,1.175989929045542226e+00,6.923076923076934008e-01,1.059340659340659130e+00
7.000088691711425781e-01,1.187647821774618251e+00,3.626373626373649017e-01,9.538461538461540101e-01
7.200093269348144531e-01,1.190562294956890810e+00,1.868131868131897022e-01,8.395604395604401304e-01
7.400095462799072266e-01,1.190562294956890810e+00,-2.087912087912116021e-01,7.868131868131875706e-01
7.600097656250000000e-01,1.184733348592359903e+00,-5.824175824175839011e-01,7.692307692307700506e-01
7.800099849700927734e-01,1.173075455863283878e+00,-7.802197802197810006e-01,6.021978021978036111e-01
8.000102043151855469e-01,1.155588616769662735e+00,-1.087912087912087600e+00,5.142857142857160113e-01
8.200104236602783203e-01,1.132272831311510686e+00,-1.219780219780218999e+00,4.439560439560423788e-01
8.400106430053710938e-01,1.103128099488827729e+00,-1.417582417582416099e+00,2.241758241758233794e-01
8.600108623504638672e-01,1.068154421301599655e+00,-1.681318681318678898e+00,6.593406593406569982e-02
8.800110816955566406e-01,1.027351796749826462e+00,-2.252747252747255402e+00,9.230769230769197975e-02
9.000113010406494141e-01,9.778057526512498043e-01,-2.626373626373627701e+00,-1.274725274725270197e-01
9.200115203857421875e-01,9.195162890058696803e-01,-2.956043956043956200e+00,-3.296703296703284991e-01
9.400119781494140625e-01,8.553978789959586493e-01,-3.197802197802197099e+00,-6.373626373626386510e-01
9.600121974945068359e-01,7.912794689860334074e-01,-3.527472527472525599e+00,-7.428571428571437707e-01
9.800124168395996094e-01,7.184176394293189105e-01,-3.901098901098897898e+00,-8.659340659340664104e-01
1.000012636184692383e+00,6.368123903257867369e-01,-4.098901098901102102e+00,-1.120879120879120450e+00
1.020012855529785156e+00,5.493781948577094454e-01,-4.494505494505496301e+00,-1.410989010989009529e+00
1.040013074874877930e+00,4.532005798428286880e-01,-5.000000000000000000e+00,-1.578021978021979521e+00
1.060013294219970703e+00,3.511940184634170237e-01,-5.000000000000000000e+00,-1.824175824175824800e+00
1.080013513565063477e+00,2.462729839017328004e-01,-5.241758241758240899e+00,-1.912087912087912400e+00
1.100013732910156250e+00,1.355230029755034593e-01,-5.439560439560437999e+00,-2.351648351648352175e+00
1.120013952255249023e+00,1.311512932021230426e-02,-5.901098901098897898e+00,-2.474725274725274815e+00
1.140014171600341797e+00,-1.122072175173514097e-01,-6.208791208791211602e+00,-2.527472527472527375e+00
1.160014390945434570e+00,-2.404440375371876826e-01,-6.142857142857145902e+00,-2.641758241758241255e+00
1.180014610290527344e+00,-3.686808575570239555e-01,-6.604395604395605801e+00,-2.527472527472527375e+00
1.200014829635620117e+00,-5.027466239414053462e-01,-6.648351648351649601e+00,-2.413186813186813495e+00
1.220015048980712891e+00,-6.368123903257867369e-01,-6.912087912087912400e+00,-2.562637362637362415e+00
1.240015268325805664e+00,-7.679636835278813578e-01,-6.604395604395605801e+00,-2.509890109890109855e+00
1.260015487670898438e+00,-9.020294499122627485e-01,-6.406593406593408702e+00,-2.404395604395604735e+00
1.280015707015991211e+00,-1.033180743114371580e+00,-6.714285714285715301e+00,-2.545054945054944895e+00
1.300015926361083984e+00,-1.167246509498738760e+00,-6.648351648351649601e+00,-2.615384615384614975e+00
1.320016384124755859e+00,-1.292568856336302474e+00,-6.406593406593408702e+00,-2.571428571428571175e+00
1.340016603469848633e+00,-1.417891203173880399e+00,-6.142857142857145902e+00,-2.492307692307692335e+00
1.360016822814941406e+00,-1.543213550011444113e+00,-6.142857142857145902e+00,-2.589010989010988695e+00
1.380017042160034180e+00,-1.662706950484476920e+00,-5.901098901098897898e+00,-2.632967032967032495e+00
1.400017261505126953e+00,-1.782200350957509727e+00,-5.835164835164832198e+00,-2.413186813186813495e+00
1.420017480850219727e+00,-1.895864805065997416e+00,-5.637362637362635098e+00,-2.439560439560439775e+00
1.440017700195312500e+00,-2.003700312809954198e+00,-6.076923076923080203e+00,-1.885714285714286120e+00
1.460017919540405273e+00,-2.114450293736169328e+00,-5.307692307692306599e+00,-1.384615384615383249e+00
1.480018138885498047e+00,-2.216456855115580993e+00,-5.439560439560437999e+00,-9.538461538461540101e-01
1.500018358230590820e+00,-2.306805523765930843e+00,-4.538461538461540101e+00,-1.538461538461532996e-01
1.520018577575683594e+00,-2.397154192416266483e+00,-4.494505494505496301e+00,-8.351648351648321977e-02
1.540019035339355469e+00,-2.484588387884329563e+00,-4.538461538461540101e+00,5.846153846153860911e-01
1.560019254684448242e+00,-2.560364690623330830e+00,-4.032967032967036403e+00,8.131868131868138505e-01
1.580019474029541016e+00,-2.633226520180059538e+00,-4.032967032967036403e+00,1.490109890109888369e+00
1.600019693374633789e+00,-2.697344930189970569e+00,-3.329670329670328499e+00,1.305494505494504409e+00
1.620019912719726562e+00,-2.755634393835350693e+00,-2.890109890109890500e+00,1.701098901098902161e+00
1.640020132064819336e+00,-2.805180437933927351e+00,-2.186813186813189702e+00,1.973626373626373720e+00
1.660020351409912109e+00,-2.851812008850231450e+00,-1.615384615384613198e+00,1.885714285714286120e+00
1.680020570755004883e+00,-2.886785687037459525e+00,-1.153846153846153300e+00,1.938461538461538680e+00
1.700020790100097656e+00,-2.921759365224687599e+00,-8.461538461538467004e-01,1.665934065934067121e+00
1.720021009445190430e+00,-2.945075150682839649e+00,-7.142857142857153008e-01,1.525274725274726961e+00
1.740021228790283203e+00,-2.965476462958719139e+00,-1.043956043956043800e+00,1.349450549450548209e+00
1.760021448135375977e+00,-2.980048828870067723e+00,-9.120879120879124002e-01,1.410989010989009529e+00
1.780021667480468750e+00,-2.988792248416871189e+00,-4.505494505494525015e-01,1.358241758241756969e+00
1.800021886825561523e+00,-2.994621194781416307e+00,-7.692307692308020250e-02,1.006593406593406570e+00
1.820022106170654297e+00,-2.997535667963688866e+00,5.494505494505830256e-02,7.604395604395612907e-01
1.840022325515747070e+00,-2.997535667963688866e+00,1.208791208791240024e-01,5.054945054945072513e-01
1.860022544860839844e+00,-2.994621194781416307e+00,1.868131868131897022e-01,2.153846153846146194e-01
1.880022764205932617e+00,-2.991706721599143748e+00,1.208791208791240024e-01,-2.197802197802189994e-02
1.900022983551025391e+00,-2.991706721599143748e+00,2.527472527472554020e-01,-2.857142857142846992e-01
1.920023202896118164e+00,-2.985877775234612841e+00,4.285714285714306016e-01,-3.999999999999985789e-01
1.940023422241210938e+00,-2.982963302052340282e+00,2.527472527472554020e-01,-5.318681318681335313e-01
1.960023641586303711e+00,-2.977134355687795164e+00,4.285714285714306016e-01,-6.901098901098912108e-01
1.980023860931396484e+00,-2.971305409323264257e+00,4.285714285714306016e-01,-8.131868131868138505e-01
2.000024080276489258e+00,-2.968390936140991698e+00,3.186813186813211018e-01,-9.450549450549452501e-01
2.020024299621582031e+00,-2.968390936140991698e+00,-1.098901098901450268e-02,-1.085714285714285410e+00
2.040024518966674805e+00,-2.968390936140991698e+00,-1.098901098901450268e-02,-1.164835164835164250e+00
2.060024738311767578e+00,-2.968390936140991698e+00,-2.747252747252773020e-01,-1.173626373626373010e+00
2.080024957656860352e+00,-2.971305409323264257e+00,-1.098901098901450268e-02,-1.191208791208790529e+00
2.100025177001953125e+00,-2.977134355687795164e+00,5.494505494505830256e-02,-1.217582417582416809e+00
2.120025396347045898e+00,-2.982963302052340282e+00,-2.087912087912116021e-01,-1.199999999999999289e+00
2.140025615692138672e+00,-2.988792248416871189e+00,-2.747252747252773020e-01,-1.112087912087911690e+00
2.160025835037231445e+00,-2.994621194781416307e+00,-3.406593406593430018e-01,-1.068131868131867890e+00
2.180026054382324219e+00,-3.000450141145947214e+00,-3.846153846153868017e-01,-9.538461538461540101e-01
2.200026273727416992e+00,-3.009193560692764891e+00,-5.164835164835182013e-01,-8.483516483516488904e-01
2.220026493072509766e+00,-3.017936980239568356e+00,-2.747252747252773020e-01,-8.219780219780226105e-01
2.240026712417602539e+00,-3.026680399786371822e+00,-3.406593406593430018e-01,-7.868131868131875706e-01
2.260026931762695312e+00,-3.038338292515447847e+00,-5.824175824175839011e-01,-5.758241758241773312e-01
2.280027151107788086e+00,-3.047081712062251313e+00,-7.142857142857153008e-01,-4.967032967032949387e-01
2.300027370452880859e+00,-3.055825131609068990e+00,-5.824175824175839011e-01,-3.736263736263722990e-01
2.320027589797973633e+00,-3.067483024338145015e+00,-5.164835164835182013e-01,-3.384615384615372591e-01
2.340027809143066406e+00,-3.076226443884948480e+00,-5.824175824175839011e-01,-2.417582417582408993e-01
2.360028028488159180e+00,-3.082055390249479387e+00,-1.098901098901450268e-02,-1.362637362637357796e-01
2.380028247833251953e+00,-3.087884336614024505e+00,-6.483516483516496010e-01,-2.197802197802189994e-02
2.400028467178344727e+00,-3.093713282978555412e+00,-5.164835164835182013e-01,9.230769230769197975e-02
2.420028686523437500e+00,-3.102456702525373089e+00,-3.846153846153868017e-01,7.472527472527445980e-02
2.440028905868530273e+00,-3.111200122072176555e+00,-2.087912087912116021e-01,1.186813186813182597e-01
2.460029125213623047e+00,-3.117029068436707462e+00,-2.087912087912116021e-01,1.274725274725270197e-01
2.480029344558715820e+00,-3.119943541618980021e+00,-3.406593406593430018e-01,2.505494505494496593e-01
2.500029563903808594e+00,-3.125772487983525139e+00,-4.505494505494525015e-01,3.032967032967022192e-01
2.520029783248901367e+00,-3.128686961165783487e+00,-3.406593406593430018e-01,2.769230769230759392e-01
2.540030002593994141e+00,-3.131601434348056046e+00,-2.087912087912116021e-01,2.681318681318671793e-01
2.560030221939086914e+00,-3.134515907530328604e+00,-2.747252747252773020e-01,2.593406593406584193e-01
2.580030441284179688e+00,-3.134515907530328604e+00,-1.428571428571459023e-01,2.505494505494496593e-01
2.600030660629272461e+00,-3.134515907530328604e+00,5.494505494505830256e-02,2.329670329670321394e-01
2.620030879974365234e+00,-3.134515907530328604e+00,1.868131868131897022e-01,2.593406593406584193e-01
2.640031099319458008e+00,-3.131601434348056046e+00,3.626373626373649017e-01,2.329670329670321394e-01
2.660031318664550781e+00,-3.131601434348056046e+00,-7.692307692308020250e-02,1.714285714285708195e-01
2.680031538009643555e+00,-3.131601434348056046e+00,-2.747252747252773020e-01,1.098901098901094997e-01
2.700031757354736328e+00,-3.131601434348056046e+00,1.208791208791240024e-01,5.714285714285693984e-02
2.720032215118408203e+00,-3.131601434348056046e+00,1.868131868131897022e-01,4.835164835164817987e-02
2.740032672882080078e+00,-3.128686961165783487e+00,-1.098901098901450268e-02,3.956043956043941989e-02
2.760032892227172852e+00,-3.128686961165783487e+00,1.868131868131897022e-01,-1.318681318681313996e-02
2.780033111572265625e+00,-3.125772487983525139e+00,-7.692307692308020250e-02,-8.351648351648321977e-02
2.800033330917358398e+00,-3.125772487983525139e+00,1.208791208791240024e-01,-9.230769230769197975e-02
2.820033550262451172e+00,-3.125772487983525139e+00,-2.087912087912116021e-01,-1.450549450549445396e-01
2.840033769607543945e+00,-3.125772487983525139e+00,-7.692307692308020250e-02,-1.450549450549445396e-01
2.860033988952636719e+00,-3.125772487983525139e+00,-1.098901098901450268e-02,-1.538461538461532996e-01
2.880034208297729492e+00,-3.125772487983525139e+00,5.494505494505830256e-02,-1.538461538461532996e-01
2.900034427642822266e+00,-3.125772487983525139e+00,-1.098901098901450268e-02,-9.230769230769197975e-02
2.920034646987915039e+00,-3.125772487983525139e+00,-1.098901098901450268e-02,-1.010989010989007397e-01
2.940034866333007812e+00,-3.125772487983525139e+00,-7.692307692308020250e-02,-1.274725274725270197e-01
2.960035085678100586e+00,-3.125772487983525139e+00,-1.098901098901450268e-02,-1.186813186813182597e-01
2.980035305023193359e+00,-3.125772487983525139e+00,-7.692307692308020250e-02,-1.010989010989007397e-01
3.000035524368286133e+00,-3.125772487983525139e+00,1.208791208791240024e-01,-9.230769230769197975e-02
3.020035743713378906e+00,-3.128686961165783487e+00,-1.098901098901450268e-02,-7.472527472527445980e-02
3.040035963058471680e+00,-3.128686961165783487e+00,-1.098901098901450268e-02,-7.472527472527445980e-02
3.060036182403564453e+00,-3.128686961165783487e+00,1.208791208791240024e-01,-5.714285714285693984e-02
3.080036401748657227e+00,-3.128686961165783487e+00,-1.428571428571459023e-01,-6.593406593406569982e-02
3.100036621093750000e+00,-3.128686961165783487e+00,-7.692307692308020250e-02,-7.472527472527445980e-02
3.120036840438842773e+00,-3.125772487983525139e+00,-7.692307692308020250e-02,-8.351648351648321977e-02
3.140037059783935547e+00,-3.125772487983525139e+00,5.494505494505830256e-02,-8.351648351648321977e-02
3.160037279129028320e+00,-3.125772487983525139e+00,-7.692307692308020250e-02,-8.351648351648321977e-02
3.180037498474121094e+00,-3.125772487983525139e+00,5.494505494505830256e-02,-7.472527472527445980e-02
3.200037717819213867e+00,-3.125772487983525139e+00,-1.098901098901450268e-02,-8.351648351648321977e-02
3.220037937164306641e+00,-3.125772487983525139e+00,-1.098901098901450268e-02,-8.351648351648321977e-02
3.240038156509399414e+00,-3.125772487983525139e+00,-1.098901098901450268e-02,-9.230769230769197975e-02
3.260038375854492188e+00,-3.125772487983525139e+00,-7.692307692308020250e-02,-8.351648351648321977e-02
3.280038833618164062e+00,-3.125772487983525139e+00,-7.692307692308020250e-02,-9.230769230769197975e-02
3.300039052963256836e+00,-3.125772487983525139e+00,5.494505494505830256e-02,-8.351648351648321977e-02
3.320039272308349609e+00,-3.125772487983525139e+00,5.494505494505830256e-02,-7.472527472527445980e-02
3.340039491653442383e+00,-3.125772487983525139e+00,-1.098901098901450268e-02,-6.593406593406569982e-02
3.360039710998535156e+00,-3.125772487983525139e+00,-1.098901098901450268e-02,-8.351648351648321977e-02
3.380039930343627930e+00,-3.125772487983525139e+00,1.208791208791240024e-01,-9.230769230769197975e-02
3.400040149688720703e+00,-3.125772487983525139e+00,-7.692307692308020250e-02,-8.351648351648321977e-02
3.420040369033813477e+00,-3.125772487983525139e+00,-1.098901098901450268e-02,-1.010989010989007397e-01
3.440040588378906250e+00,-3.125772487983525139e+00,1.208791208791240024e-01,-9.230769230769197975e-02
3.460040807723999023e+00,-3.125772487983525139e+00,-1.098901098901450268e-02,-1.010989010989007397e-01
3.480041027069091797e+00,-3.125772487983525139e+00,-1.098901098901450268e-02,-9.230769230769197975e-02
3.500041246414184570e+00,-3.125772487983525139e+00,-1.098901098901450268e-02,-1.010989010989007397e-01
3.520041465759277344e+00,-3.125772487983525139e+00,5.494505494505830256e-02,-1.186813186813182597e-01
3.540041685104370117e+00,-3.125772487983525139e+00,5.494505494505830256e-02,-1.098901098901094997e-01
3.560041904449462891e+00,-3.125772487983525139e+00,-1.098901098901450268e-02,-1.098901098901094997e-01
3.580042123794555664e+00,-3.125772487983525139e+00,-1.098901098901450268e-02,-1.098901098901094997e-01
3.600042343139648438e+00,-3.125772487983525139e+00,1.208791208791240024e-01,-1.098901098901094997e-01
3.620042562484741211e+00,-3.125772487983525139e+00,5.494505494505830256e-02,-1.098901098901094997e-01
3.640042781829833984e+00,-3.125772487983525139e+00,1.868131868131897022e-01,-1.098901098901094997e-01
3.660043001174926758e+00,-3.125772487983525139e+00,5.494505494505830256e-02,-1.274725274725270197e-01
3.680043220520019531e+00,-3.125772487983525139e+00,5.494505494505830256e-02,-1.274725274725270197e-01
3.700043439865112305e+00,-3.125772487983525139e+00,-7.692307692308020250e-02,-1.362637362637357796e-01
3.720043659210205078e+00,-3.128686961165783487e+00,-7.692307692308020250e-02,-1.362637362637357796e-01
3.740043878555297852e+00,-3.125772487983525139e+00,5.494505494505830256e-02,-1.450549450549445396e-01
3.760044097900390625e+00,-3.125772487983525139e+00,-1.098901098901450268e-02,-1.274725274725270197e-01
3.780044317245483398e+00,-3.128686961165783487e+00,-7.692307692308020250e-02,-1.274725274725270197e-01
3.800044536590576172e+00,-3.125772487983525139e+00,-1.098901098901450268e-02,-1.362637362637357796e-01
3.820044755935668945e+00,-3.125772487983525139e+00,-7.692307692308020250e-02,-1.186813186813182597e-01
3.840044975280761719e+00,-3.125772487983525139e+00,1.208791208791240024e-01,-1.186813186813182597e-01
3.860045194625854492e+00,-3.125772487983525139e+00,-7.692307692308020250e-02,-1.186813186813182597e-01
3.880045413970947266e+00,-3.125772487983525139e+00,-1.428571428571459023e-01,-1.098901098901094997e-01
